Time;PeopleCount;WindowSize;CellsInMeter;MeanSpeed;Density;Flow
0.316113;4;5;2.500000;0.316343;0.008013;0.000000
10.346826;11;5;2.500000;1.317469;0.022035;0.000000
20.379877;19;5;2.500000;1.264074;0.038061;0.199341
30.396600;26;5;2.500000;1.242768;0.052083;0.598998
40.398914;33;5;2.500000;1.263764;0.066106;0.699838
50.402293;40;5;2.500000;1.294608;0.080128;0.899696
60.417736;49;5;2.500000;1.299815;0.098157;0.798766
70.426782;56;5;2.500000;1.288480;0.112179;1.398735
80.429803;65;5;2.500000;1.301731;0.130208;1.099668
90.435075;75;5;2.500000;1.286205;0.150240;1.699104
100.442719;84;5;2.500000;1.309033;0.168269;1.798625
110.447846;93;5;2.500000;1.308978;0.186298;1.499231
120.448457;102;5;2.500000;1.333674;0.204327;2.599841
130.448912;109;5;2.500000;1.295987;0.218349;1.999909
140.453291;116;5;2.500000;1.312500;0.232372;2.598862
150.463348;126;5;2.500000;1.329818;0.252404;1.898091
160.475526;134;5;2.500000;1.328998;0.268429;3.595621
170.476906;142;5;2.500000;1.330667;0.284455;3.699490
180.478798;152;5;2.500000;1.344932;0.304487;2.199584
190.481205;157;5;2.500000;1.328923;0.314503;2.899302
200.483235;166;5;2.500000;1.347533;0.332532;3.099371
210.486861;173;5;2.500000;1.347607;0.346554;4.098514
220.487893;179;5;2.500000;1.343214;0.358574;3.799608
230.489868;191;5;2.500000;1.352918;0.382612;3.799250
240.490084;195;5;2.500000;1.349569;0.390625;3.799918
250.490264;204;5;2.500000;1.349199;0.408654;3.499937
260.492039;212;5;2.500000;1.350683;0.424679;5.898953
270.496765;220;5;2.500000;1.343445;0.440705;3.498347
280.497150;227;5;2.500000;1.349987;0.454728;5.099804
290.497559;235;5;2.500000;1.361628;0.470753;4.899800
300.498883;242;5;2.500000;1.343360;0.484776;4.699378
310.498927;253;5;2.500000;1.350823;0.506811;5.599975
320.499445;260;5;2.500000;1.349348;0.520833;4.599762
330.500616;269;5;2.500000;1.360661;0.538862;6.799204
340.500657;276;5;2.500000;1.357987;0.552885;4.999980
350.501201;285;5;2.500000;1.355292;0.570913;5.899679
360.502186;291;5;2.500000;1.357312;0.582933;6.199389
370.507614;301;5;2.500000;1.358062;0.602965;4.997287
380.507680;306;5;2.500000;1.356242;0.612981;7.899948
390.508444;315;5;2.500000;1.352347;0.631010;5.699564
400.509098;325;5;2.500000;1.350881;0.651042;5.799621
410.513945;333;5;2.500000;1.359003;0.667067;7.196512
420.514657;339;5;2.500000;1.358188;0.679087;8.699381
430.515779;347;5;2.500000;1.358201;0.695112;6.299293
440.517225;355;5;2.500000;1.359758;0.711138;7.098973
450.517447;362;5;2.500000;1.353846;0.725160;7.399836
460.518284;374;5;2.500000;1.363936;0.749199;6.199481
470.518432;384;5;2.500000;1.353214;0.769231;8.499875
480.518640;392;5;2.500000;1.355989;0.785256;9.499802
490.519185;399;5;2.500000;1.363260;0.799279;6.999618
500.519399;407;5;2.500000;1.361946;0.815304;8.899810
510.519413;415;5;2.500000;1.356246;0.831330;8.299988
520.519973;422;5;2.500000;1.360548;0.845353;8.299536
530.521184;431;5;2.500000;1.355694;0.863381;8.099019
540.522421;439;5;2.500000;1.355530;0.879407;8.998887
550.522607;445;5;2.500000;1.363924;0.891426;10.799799
560.523473;454;5;2.500000;1.363118;0.909455;8.999220
570.523519;462;5;2.500000;1.356407;0.925481;8.099963
580.523827;468;5;2.500000;1.368247;0.937500;9.899695
590.525147;477;5;2.500000;1.360093;0.955529;8.898825
600.526592;485;5;2.500000;1.358191;0.971554;10.598469
610.526956;491;5;2.500000;1.360800;0.983574;10.599614
620.527023;497;5;2.500000;1.358597;0.995593;10.499930
630.527196;504;5;2.500000;1.360415;1.009615;8.799848
640.527565;512;5;2.500000;1.359422;1.025641;9.699642
650.528137;517;5;2.500000;1.364270;1.035657;10.299411
660.528565;527;5;2.500000;1.352222;1.055689;10.299559
670.528872;534;5;2.500000;1.346406;1.069712;12.699610
680.529911;544;5;2.500000;1.360396;1.089744;9.299034
690.530132;553;5;2.500000;1.352777;1.107772;12.499723
700.530801;560;5;2.500000;1.352066;1.121795;9.399372
710.531840;566;5;2.500000;1.361834;1.133814;10.998857
720.532199;574;5;2.500000;1.357303;1.149840;12.599548
730.532720;581;5;2.500000;1.359808;1.163862;13.199312
740.533552;590;5;2.500000;1.356018;1.181891;10.499127
750.533847;599;5;2.500000;1.357123;1.199920;10.799681
760.534073;606;5;2.500000;1.351834;1.213942;11.999729
770.534391;610;5;2.500000;1.346587;1.221955;13.299577
780.534863;621;5;2.500000;1.356911;1.243990;13.399367
790.534971;626;5;2.500000;1.354626;1.254006;12.599865
800.535824;633;5;2.500000;1.348604;1.268029;10.999062
810.537056;640;5;2.500000;1.351693;1.282051;13.298361
820.537248;648;5;2.500000;1.351985;1.298077;13.099748
830.537354;654;5;2.500000;1.350931;1.310096;14.899842
840.537697;660;5;2.500000;1.342940;1.322115;12.799561
850.538330;669;5;2.500000;1.346781;1.340144;11.499273
860.539060;677;5;2.500000;1.347186;1.356170;12.599080
870.540106;688;5;2.500000;1.348205;1.378205;12.098734
880.541132;695;5;2.500000;1.354354;1.392228;16.098348
890.541382;702;5;2.500000;1.342944;1.406250;14.399641
900.542536;711;5;2.500000;1.352414;1.424279;14.398339
910.543202;717;5;2.500000;1.346943;1.436298;14.799014
920.543700;726;5;2.500000;1.340373;1.454327;12.699367
930.544676;733;5;2.500000;1.339322;1.468349;13.298702
940.545124;739;5;2.500000;1.344195;1.480369;15.499305
950.545201;746;5;2.500000;1.339633;1.494391;16.499873
960.545446;753;5;2.500000;1.342940;1.508413;14.799638
970.545661;758;5;2.500000;1.338622;1.518429;14.599687
980.547650;766;5;2.500000;1.341922;1.534455;13.897236
990.548474;773;5;2.500000;1.329144;1.548478;16.498640
1000.549648;781;5;2.500000;1.349276;1.564503;13.398426
1010.550077;787;5;2.500000;1.337811;1.576522;16.899275
1020.550347;795;5;2.500000;1.345639;1.592548;18.399503
1030.550981;804;5;2.500000;1.334350;1.610577;13.499144
1040.551097;811;5;2.500000;1.333282;1.624599;17.199801
1050.551705;820;5;2.500000;1.337246;1.642628;16.299008
1060.551892;828;5;2.500000;1.326637;1.658654;14.099737
1070.552409;837;5;2.500000;1.329796;1.676683;15.499198
1080.552745;843;5;2.500000;1.333874;1.688702;17.499412
1090.553162;852;5;2.500000;1.327849;1.706731;21.899086
1100.553858;862;5;2.500000;1.331855;1.726763;14.798971
1110.553875;869;5;2.500000;1.332747;1.740785;17.099971
1120.555152;873;5;2.500000;1.331220;1.748798;16.397905
1130.556188;881;5;2.500000;1.337334;1.764824;16.498291
1140.556210;888;5;2.500000;1.338253;1.778846;18.699960
1150.556439;897;5;2.500000;1.327223;1.796875;18.099586
1160.556779;902;5;2.500000;1.327757;1.806891;17.999388
1170.557266;909;5;2.500000;1.331897;1.820913;16.399201
1180.558357;916;5;2.500000;1.324135;1.834936;17.898047
1190.559342;923;5;2.500000;1.328143;1.848958;20.298001
1200.559377;930;5;2.500000;1.329735;1.862981;16.699942
1210.560830;938;5;2.500000;1.325672;1.879006;16.197647
1220.561570;943;5;2.500000;1.320801;1.889022;17.398713
1230.561623;951;5;2.500000;1.323116;1.905048;18.599901
1240.562094;958;5;2.500000;1.327151;1.919071;21.498987
1250.562457;963;5;2.500000;1.332320;1.929087;18.999312
1260.562844;969;5;2.500000;1.322291;1.941106;19.099261
1270.562960;976;5;2.500000;1.328239;1.955128;17.099802
1280.562994;983;5;2.500000;1.321767;1.969151;16.099945
1290.563047;991;5;2.500000;1.324112;1.985176;22.899878
1300.564025;995;5;2.500000;1.320273;1.993189;20.298016
1310.564119;1001;5;2.500000;1.316426;2.005208;19.299819
1320.564250;1010;5;2.500000;1.321576;2.023237;22.599702
1330.565283;1017;5;2.500000;1.316194;2.037260;16.098337
1340.565908;1026;5;2.500000;1.330039;2.055288;15.499032
1350.567495;1031;5;2.500000;1.316223;2.065304;20.796698
1360.567829;1038;5;2.500000;1.316049;2.079327;19.899335
1370.568097;1043;5;2.500000;1.316209;2.089343;21.899413
1380.568176;1050;5;2.500000;1.322169;2.103365;19.699844
1390.568560;1056;5;2.500000;1.317779;2.115385;20.699207
1400.568754;1062;5;2.500000;1.319292;2.127404;19.999612
1410.570021;1068;5;2.500000;1.312138;2.139423;20.997340
1420.570167;1071;5;2.500000;1.311884;2.145433;19.999707
1430.570552;1078;5;2.500000;1.312061;2.159455;18.699280
1440.570553;1085;5;2.500000;1.314354;2.173478;22.899999
1450.570574;1094;5;2.500000;1.314891;2.191506;20.499957
1460.571065;1102;5;2.500000;1.311553;2.207532;22.298905
1470.571742;1108;5;2.500000;1.310703;2.219551;19.398687
1480.571938;1113;5;2.500000;1.306159;2.229567;22.599558
1490.572001;1119;5;2.500000;1.307972;2.241587;20.299873
1500.572673;1126;5;2.500000;1.313213;2.255609;19.498688
1510.572897;1131;5;2.500000;1.318282;2.265625;22.499497
1520.573356;1139;5;2.500000;1.303618;2.281651;21.998989
1530.573726;1146;5;2.500000;1.294796;2.295673;19.599275
1540.573732;1153;5;2.500000;1.293538;2.309696;20.599987
1550.574250;1158;5;2.500000;1.313451;2.319712;21.498886
1560.574443;1162;5;2.500000;1.297213;2.327724;22.599565
1570.574559;1167;5;2.500000;1.300688;2.337740;21.999745
1580.575008;1175;5;2.500000;1.289489;2.353766;21.999011
1590.575498;1182;5;2.500000;1.290136;2.367788;19.899025
1600.575859;1187;5;2.500000;1.282196;2.377804;21.199235
1610.576008;1195;5;2.500000;1.287349;2.393830;24.299639
1620.576668;1200;5;2.500000;1.291378;2.403846;19.798693
1630.577294;1206;5;2.500000;1.287234;2.415865;24.398472
1640.577524;1208;5;2.500000;1.277894;2.419872;21.199513
1650.577671;1216;5;2.500000;1.288666;2.435897;21.799678
1660.577947;1221;5;2.500000;1.274843;2.445913;23.599349
1670.578008;1227;5;2.500000;1.281197;2.457933;24.499852
1680.578325;1234;5;2.500000;1.269479;2.471955;20.699343
1690.578494;1241;5;2.500000;1.272709;2.485978;21.699634
1700.578590;1244;5;2.500000;1.275283;2.491987;21.999788
1710.578824;1253;5;2.500000;1.260316;2.510016;20.999508
1720.579438;1257;5;2.500000;1.265396;2.518029;23.998526
1730.579614;1264;5;2.500000;1.251396;2.532051;22.999595
1740.579674;1272;5;2.500000;1.273713;2.548077;22.399866
1750.579687;1276;5;2.500000;1.257065;2.556090;22.299971
1760.580853;1279;5;2.500000;1.259917;2.562099;23.497259
1770.581015;1285;5;2.500000;1.253716;2.574119;21.199658
1780.581163;1294;5;2.500000;1.252758;2.592147;22.399667
1790.581429;1301;5;2.500000;1.254156;2.606170;24.199357
1800.581459;1306;5;2.500000;1.260760;2.616186;21.299937
1810.581523;1314;5;2.500000;1.243904;2.632212;23.499849
1820.581863;1321;5;2.500000;1.257985;2.646234;22.799224
1830.582625;1327;5;2.500000;1.245970;2.658253;24.598126
1840.582652;1335;5;2.500000;1.254370;2.674279;22.799939
1850.582662;1339;5;2.500000;1.249466;2.682292;23.199976
1860.582815;1344;5;2.500000;1.227083;2.692308;22.099663
1870.582876;1349;5;2.500000;1.228486;2.702324;24.399852
1880.582922;1353;5;2.500000;1.233062;2.710337;21.899900
1890.583294;1357;5;2.500000;1.242890;2.718349;24.799077
1900.583328;1363;5;2.500000;1.243906;2.730369;22.999922
1910.583532;1370;5;2.500000;1.234677;2.744391;23.499520
1920.583552;1376;5;2.500000;1.217926;2.756410;24.199952
1930.583568;1381;5;2.500000;1.232225;2.766426;21.299967
1940.583835;1388;5;2.500000;1.224341;2.780449;24.999332
1950.583954;1395;5;2.500000;1.222706;2.794471;22.599731
1960.584361;1403;5;2.500000;1.204034;2.810497;21.999105
1970.584480;1409;5;2.500000;1.210048;2.822516;22.499731
1980.584936;1413;5;2.500000;1.219048;2.830529;21.899003
1990.585222;1418;5;2.500000;1.220940;2.840545;27.899200
2000.585403;1427;5;2.500000;1.217032;2.858574;22.699590
2010.585503;1431;5;2.500000;1.214226;2.866587;21.899781
2020.585577;1438;5;2.500000;1.194257;2.880609;23.699825
2030.585890;1445;5;2.500000;1.207290;2.894631;23.399266
2040.586136;1451;5;2.500000;1.209471;2.906651;22.099457
2050.586137;1455;5;2.500000;1.215844;2.914663;23.599999
2060.586694;1461;5;2.500000;1.203231;2.926683;24.298647
2070.587169;1468;5;2.500000;1.209196;2.940705;24.598831
2080.587396;1475;5;2.500000;1.194543;2.954728;24.099454
2090.587760;1481;5;2.500000;1.192968;2.966747;25.499071
2100.587886;1486;5;2.500000;1.196354;2.976763;21.699726
2110.587889;1494;5;2.500000;1.197921;2.992788;24.399994
2120.588259;1501;5;2.500000;1.186588;3.006811;23.299136
2130.588320;1511;5;2.500000;1.196882;3.026843;25.899843
2140.588457;1516;5;2.500000;1.181787;3.036859;23.099683
2150.588606;1523;5;2.500000;1.177712;3.050881;23.599650
2160.588627;1529;5;2.500000;1.177802;3.062901;23.599950
2170.589103;1535;5;2.500000;1.176786;3.074920;23.598878
2180.589227;1542;5;2.500000;1.174495;3.088942;24.799692
2190.589588;1549;5;2.500000;1.172416;3.102965;25.099093
2200.589842;1554;5;2.500000;1.165068;3.112981;22.799421
2210.589913;1559;5;2.500000;1.147003;3.122997;25.299820
2220.589918;1569;5;2.500000;1.158670;3.143029;22.199989
2230.590106;1574;5;2.500000;1.154597;3.153045;23.699555
2240.590155;1584;5;2.500000;1.155481;3.173077;23.399885
2250.590362;1589;5;2.500000;1.162151;3.183093;24.299496
2260.590682;1594;5;2.500000;1.159953;3.193109;25.099198
2270.590809;1601;5;2.500000;1.158490;3.207131;24.499689
2280.591018;1608;5;2.500000;1.158961;3.221154;22.999518
2290.591740;1614;5;2.500000;1.154285;3.233173;24.898204
2300.591793;1621;5;2.500000;1.155045;3.247196;26.699858
2310.592131;1629;5;2.500000;1.139247;3.263221;23.699197
2320.592594;1636;5;2.500000;1.132136;3.277244;23.998890
2330.592647;1636;5;2.500000;1.113376;3.277244;24.099873
2340.592786;1644;5;2.500000;1.130131;3.293269;21.499699
2350.592910;1651;5;2.500000;1.149637;3.307292;25.299688
2360.592941;1656;5;2.500000;1.139422;3.317308;24.799923
2370.593285;1663;5;2.500000;1.138400;3.331330;23.699184
2380.593304;1670;5;2.500000;1.121513;3.345353;26.499949
2390.593617;1676;5;2.500000;1.115484;3.357372;24.199242
2400.593909;1684;5;2.500000;1.099416;3.373397;24.599282
2410.593984;1692;5;2.500000;1.120710;3.389423;21.799836
2420.594216;1697;5;2.500000;1.118932;3.399439;22.099489
2430.594408;1702;5;2.500000;1.119738;3.409455;25.199516
2440.594596;1708;5;2.500000;1.119233;3.421474;25.399522
2450.594649;1714;5;2.500000;1.114250;3.433494;24.599869
2460.594654;1721;5;2.500000;1.117193;3.447516;24.299989
2470.595090;1726;5;2.500000;1.124665;3.457532;23.198988
2480.595258;1731;5;2.500000;1.124900;3.467548;24.699585
2490.595788;1735;5;2.500000;1.125441;3.475561;27.098563
2500.595866;1741;5;2.500000;1.103684;3.487580;23.999812
2510.595920;1749;5;2.500000;1.108810;3.503606;24.599867
2520.596029;1755;5;2.500000;1.113255;3.515625;21.699765
2530.596049;1764;5;2.500000;1.091961;3.533654;23.999952
2540.596140;1769;5;2.500000;1.103188;3.543670;28.899735
2550.596366;1773;5;2.500000;1.077749;3.551683;24.799440
2560.596417;1777;5;2.500000;1.105098;3.559696;23.799879
2570.596587;1784;5;2.500000;1.083858;3.573718;24.999575
2580.596620;1791;5;2.500000;1.089927;3.587740;24.199920
2590.596699;1795;5;2.500000;1.093345;3.595753;24.399808
2600.596972;1802;5;2.500000;1.094609;3.609776;24.399334
2610.596988;1807;5;2.500000;1.082590;3.619792;25.499958
2620.597030;1813;5;2.500000;1.093001;3.631811;25.999891
2630.597105;1821;5;2.500000;1.089079;3.647837;22.899830
2640.597214;1827;5;2.500000;1.112895;3.659856;21.999760
2650.597250;1833;5;2.500000;1.092230;3.671875;25.799906
2660.597286;1838;5;2.500000;1.099456;3.681891;26.099906
2670.597354;1845;5;2.500000;1.096084;3.695913;26.899818
2680.597437;1854;5;2.500000;1.071274;3.713942;25.699787
2690.597438;1858;5;2.500000;1.066476;3.721955;24.599996
2700.597497;1864;5;2.500000;1.074499;3.733974;23.299862
2710.597639;1871;5;2.500000;1.065037;3.747997;24.699649
2720.597786;1875;5;2.500000;1.086227;3.756010;23.499656
2730.598109;1882;5;2.500000;1.066033;3.770032;24.399211
2740.598215;1888;5;2.500000;1.084514;3.782051;25.999725
2750.598555;1892;5;2.500000;1.065150;3.790064;22.399240
2760.598652;1899;5;2.500000;1.063943;3.804087;25.399754
2770.598688;1905;5;2.500000;1.070141;3.816106;24.299912
2780.598757;1911;5;2.500000;1.047393;3.828125;25.699822
2790.599416;1917;5;2.500000;1.045749;3.840144;26.598246
2800.599431;1923;5;2.500000;1.048523;3.852163;24.599965
2810.599688;1932;5;2.500000;1.045099;3.870192;28.399270
2820.599820;1940;5;2.500000;1.070559;3.886218;23.199693
2830.600024;1946;5;2.500000;1.060708;3.898237;24.599499
2840.600449;1953;5;2.500000;1.058892;3.912260;26.298881
2850.600682;1960;5;2.500000;1.045418;3.926282;26.099393
2860.600884;1969;5;2.500000;1.041846;3.944311;24.899496
2870.601102;1972;5;2.500000;1.055755;3.950321;23.799482
2880.601362;1978;5;2.500000;1.046128;3.962340;26.099321
2890.601394;1986;5;2.500000;1.046891;3.978365;25.499918
2900.601547;1992;5;2.500000;1.042071;3.990385;25.399612
2910.601680;1998;5;2.500000;1.039923;4.002404;27.999629
2920.602046;2004;5;2.500000;1.037306;4.014423;29.198930
2930.602124;2008;5;2.500000;1.026523;4.022436;27.299787
2940.602350;2013;5;2.500000;1.028179;4.032452;24.499447
2950.602450;2020;5;2.500000;1.039463;4.046474;24.999749
2960.602627;2029;5;2.500000;1.049238;4.064503;28.099501
2970.602652;2032;5;2.500000;1.030440;4.070513;27.899931
2980.602704;2038;5;2.500000;1.023895;4.082532;25.899866
2990.602712;2044;5;2.500000;1.034435;4.094551;23.699982
3000.602879;2049;5;2.500000;1.051682;4.104567;27.799536
3010.602920;2055;5;2.500000;1.028435;4.116587;27.699887
3020.603027;2060;5;2.500000;1.015432;4.126603;24.499736
3030.603177;2068;5;2.500000;1.015925;4.142628;26.599601
3040.603435;2073;5;2.500000;1.018467;4.152644;26.999305
3050.603682;2078;5;2.500000;1.015317;4.162660;26.099355
3060.603739;2084;5;2.500000;1.005187;4.174679;27.299844
3070.603751;2090;5;2.500000;1.022052;4.186699;24.399970
3080.604262;2097;5;2.500000;1.033999;4.200721;26.998620
3090.604354;2106;5;2.500000;1.019513;4.218750;27.099751
3100.604532;2112;5;2.500000;1.006168;4.230769;26.599528
3110.604569;2118;5;2.500000;0.989507;4.242788;27.299898
3120.604883;2125;5;2.500000;0.995463;4.256811;26.499167
3130.604922;2134;5;2.500000;1.002396;4.274840;24.799903
3140.605014;2141;5;2.500000;1.024118;4.288862;25.599766
3150.605114;2149;5;2.500000;1.008120;4.304888;28.099720
3160.605165;2156;5;2.500000;1.008064;4.318910;26.299866
3170.605304;2165;5;2.500000;1.013407;4.336939;26.899625
3180.605359;2170;5;2.500000;1.006196;4.346955;28.799841
3190.605657;2177;5;2.500000;0.999109;4.360978;25.599238
3200.605926;2184;5;2.500000;1.009871;4.375000;26.499287
3210.605971;2190;5;2.500000;1.001702;4.387019;26.499880
3220.605977;2197;5;2.500000;0.990328;4.401042;26.599986
3230.606271;2206;5;2.500000;0.993935;4.419071;27.099202
3240.606460;2213;5;2.500000;0.997692;4.433093;26.099507
3250.606483;2218;5;2.500000;0.993495;4.443109;26.599939
3260.606495;2221;5;2.500000;0.986168;4.449119;27.599966
3270.606510;2226;5;2.500000;0.996405;4.459135;25.499962
3280.606580;2234;5;2.500000;0.979592;4.475160;25.299823
3290.606664;2242;5;2.500000;0.979538;4.491186;25.199790
3300.606896;2248;5;2.500000;0.978231;4.503205;26.599382
3310.606897;2254;5;2.500000;0.978069;4.515224;25.799998
3320.607036;2260;5;2.500000;0.976240;4.527244;26.199635
3330.607053;2266;5;2.500000;0.968913;4.539263;26.399956
3340.607420;2270;5;2.500000;0.988022;4.547276;25.699057
3350.607587;2275;5;2.500000;0.991850;4.557292;26.599556
3360.607590;2281;5;2.500000;0.967772;4.569311;26.899990
3370.607702;2288;5;2.500000;0.999643;4.583333;27.699692
3380.607834;2296;5;2.500000;0.969638;4.599359;25.099667
3390.607877;2303;5;2.500000;0.968988;4.613381;26.899886
3400.607948;2307;5;2.500000;0.970748;4.621394;26.999809
3410.608127;2312;5;2.500000;0.983628;4.631410;28.099495
3420.608199;2318;5;2.500000;0.968098;4.643429;27.199804
3430.608353;2322;5;2.500000;0.967388;4.651442;27.399578
3440.608359;2329;5;2.500000;0.959840;4.665465;26.099986
3450.608856;2333;5;2.500000;0.968379;4.673478;24.798767
3460.608860;2339;5;2.500000;0.968924;4.685497;28.199988
3470.608928;2345;5;2.500000;0.978442;4.697516;26.299820
3480.609120;2351;5;2.500000;0.958919;4.709535;26.199497
3490.609944;2358;5;2.500000;0.974582;4.723558;25.497900
3500.609987;2365;5;2.500000;0.963830;4.737580;26.399886
3510.610232;2371;5;2.500000;0.929541;4.749599;23.999411
3520.610240;2375;5;2.500000;0.966412;4.757612;28.499979
3530.610296;2380;5;2.500000;0.952520;4.767628;24.299863
3540.610455;2386;5;2.500000;0.948827;4.779647;25.499594
3550.610927;2392;5;2.500000;0.946137;4.791667;26.198764
3560.611142;2397;5;2.500000;0.948133;4.801683;25.999440
3570.611220;2403;5;2.500000;0.948134;4.813702;26.299796
3580.611329;2408;5;2.500000;0.967884;4.823718;27.699696
3590.611330;2412;5;2.500000;0.948336;4.831731;26.499999
3600.611526;2416;5;2.500000;0.931193;4.839744;26.599477
